time,Eh,El,R0_low_target,R0_low_adj,R0_high_adj,theta,p_recover
0.0,0.0,0.0,0.5,0.4444444444444445,0.4666666666666667,0.25,1.5
1.0027472527472527,2.1232864133911436e-05,1.9378821550759825e-05,0.5,0.4444444444444445,0.4666666666666667,0.25,1.5
2.0054945054945055,3.4630919045947166e-05,3.0246884222201926e-05,0.5,0.4444444444444445,0.4666666666666667,0.25,1.5
3.008241758241758,4.273315822302268e-05,3.567252092437803e-05,0.5,0.4444444444444445,0.4666666666666667,0.25,1.5
4.010989010989011,4.7261138331805544e-05,3.766326088520629e-05,0.5,0.4444444444444445,0.4666666666666667,0.25,1.5
5.013736263736264,4.9391377685902974e-05,3.753883780627098e-05,0.5,0.4444444444444445,0.4666666666666667,0.25,1.5
6.016483516483516,4.992762201530328e-05,3.616093546838089e-05,0.5,0.4444444444444445,0.4666666666666667,0.25,1.5
7.019230769230769,4.941399713137758e-05,3.4081671663104964e-05,0.5,0.4444444444444445,0.4666666666666667,0.25,1.5
8.021978021978022,4.82236298746803e-05,3.165725119487327e-05,0.5,0.4444444444444445,0.4666666666666667,0.25,1.5
9.024725274725274,4.661140432416638e-05,2.91129598711976e-05,0.5,0.4444444444444445,0.4666666666666667,0.25,1.5
10.027472527472527,4.474913368423915e-05,2.6585178927150928e-05,0.5,0.4444444444444445,0.4666666666666667,0.25,1.5
11.030219780219781,4.275398549515336e-05,2.4155484153910354e-05,0.5,0.4444444444444445,0.4666666666666667,0.25,1.5
12.032967032967033,4.0703879074629834e-05,2.1867902094338725e-05,0.5,0.4444444444444445,0.4666666666666667,0.25,1.5
13.035714285714285,3.865199256955209e-05,1.974489914645127e-05,0.5,0.4444444444444445,0.4666666666666667,0.25,1.5
14.038461538461538,3.663331665055877e-05,1.779407193270773e-05,0.5,0.4444444444444445,0.4666666666666667,0.25,1.5
15.041208791208792,3.467011080971572e-05,1.6013499366577417e-05,0.5,0.4444444444444445,0.4666666666666667,0.25,1.5
16.043956043956044,3.277612266385746e-05,1.439609503269821e-05,0.5,0.4444444444444445,0.4666666666666667,0.25,1.5
17.046703296703296,3.095954245956461e-05,1.2932180469070097e-05,0.5,0.4444444444444445,0.4666666666666667,0.25,1.5
18.049450549450547,2.9224884285632505e-05,1.1610699362657737e-05,0.5,0.4444444444444445,0.4666666666666667,0.25,1.5
19.052197802197803,2.7574073041463215e-05,1.0420332578246848e-05,0.5,0.4444444444444445,0.4666666666666667,0.25,1.5
20.054945054945055,2.6006332566770924e-05,9.349257403307817e-06,0.5,0.4444444444444445,0.4666666666666667,0.25,1.5
21.057692307692307,2.4519989628711664e-05,8.386262014313526e-06,0.5,0.4444444444444445,0.4666666666666667,0.25,1.5
22.060439560439562,2.3112705312664262e-05,7.520942479477141e-06,0.5,0.4444444444444445,0.4666666666666667,0.25,1.5
23.063186813186814,2.1781788553597898e-05,6.744008411390218e-06,0.5,0.4444444444444445,0.4666666666666667,0.25,1.5
24.065934065934066,2.0524219077908252e-05,6.046814771477631e-06,0.5,0.4444444444444445,0.4666666666666667,0.25,1.5
25.068681318681318,1.9336762520948976e-05,5.421337321320618e-06,0.5,0.4444444444444445,0.4666666666666667,0.25,1.5
26.07142857142857,1.82160599736922e-05,4.86029570662798e-06,0.5,0.4444444444444445,0.4666666666666667,0.25,1.5
27.074175824175825,1.71588034882361e-05,4.357162509762998e-06,0.5,0.4444444444444445,0.4666666666666667,0.25,1.5
28.076923076923077,1.6161802228241587e-05,3.906267267567988e-06,0.5,0.4444444444444445,0.4666666666666667,0.25,1.5
29.07967032967033,1.5221894675183999e-05,3.502103194058709e-06,0.5,0.4444444444444445,0.4666666666666667,0.25,1.5
30.082417582417584,1.4335972337681155e-05,3.139476924085758e-06,0.5,0.4444444444444445,0.4666666666666667,0.25,1.5
31.085164835164836,1.3501143370492705e-05,2.8145978157474354e-06,0.5,0.4444444444444445,0.4666666666666667,0.25,1.5
32.08791208791209,1.2714444842168114e-05,2.5231356444395217e-06,0.5,0.4444444444444445,0.4666666666666667,0.25,1.5
33.09065934065934,1.1973256351695924e-05,2.2619237739813614e-06,0.5,0.4444444444444445,0.4666666666666667,0.25,1.5
34.09340659340659,1.1274932698111902e-05,2.02771004857603e-06,0.5,0.4444444444444445,0.4666666666666667,0.25,1.5
35.09615384615385,1.0617052214340973e-05,1.8176777657954523e-06,0.5,0.4444444444444445,0.4666666666666667,0.25,1.5
36.098901098901095,9.997356771983768e-06,1.6293792439702966e-06,0.5,0.4444444444444445,0.4666666666666667,0.25,1.5
37.10164835164835,9.413625588906866e-06,1.4604419919159327e-06,0.5,0.4444444444444445,0.4666666666666667,0.25,1.5
38.104395604395606,8.86380921861292e-06,1.3088246700794178e-06,0.5,0.4444444444444445,0.4666666666666667,0.25,1.5
39.107142857142854,8.345998666979837e-06,1.1728050004583994e-06,0.5,0.4444444444444445,0.4666666666666667,0.25,1.5
40.10989010989011,7.858469136145645e-06,1.0510666199057121e-06,0.5,0.4444444444444445,0.4666666666666667,0.25,1.5
41.112637362637365,7.399428681844732e-06,9.420612524164016e-07,0.5,0.4444444444444445,0.4666666666666667,0.25,1.5
42.11538461538461,6.967150560514161e-06,8.443398227457684e-07,0.5,0.4444444444444445,0.4666666666666667,0.25,1.5
43.11813186813187,6.560119501170208e-06,7.569184078199998e-07,0.5,0.4444444444444445,0.4666666666666667,0.25,1.5
44.120879120879124,6.1768905107248685e-06,6.788599525118663e-07,0.5,0.4444444444444445,0.4666666666666667,0.25,1.5
45.12362637362637,5.815985244009495e-06,6.08891737490977e-07,0.5,0.4444444444444445,0.4666666666666667,0.25,1.5
46.12637362637363,5.476072884135894e-06,5.460730678194364e-07,0.5,0.4444444444444445,0.4666666666666667,0.25,1.5
47.129120879120876,5.155912804158499e-06,4.895830805288031e-07,0.5,0.4444444444444445,0.4666666666666667,0.25,1.5
48.13186813186813,4.85436443871724e-06,4.387498720484352e-07,0.5,0.4444444444444445,0.4666666666666667,0.25,1.5
49.13461538461539,4.570374483074817e-06,3.9300990291564903e-07,0.5,0.4444444444444445,0.4666666666666667,0.25,1.5
50.137362637362635,4.302975919569935e-06,3.519049103975504e-07,0.5,0.4444444444444445,0.4666666666666667,0.25,1.5
51.14010989010989,4.051249052117853e-06,3.1502752417976273e-07,0.5,0.4444444444444445,0.4666666666666667,0.25,1.5
52.14285714285714,3.814308663194843e-06,2.8200200025277497e-07,0.5,0.4444444444444445,0.4666666666666667,0.25,1.5
53.145604395604394,3.591366871017626e-06,2.5257851446461246e-07,0.5,0.4444444444444445,0.4666666666666667,0.25,1.5
54.14835164835165,3.381676218042392e-06,2.2654071963593953e-07,0.5,0.4444444444444445,0.4666666666666667,0.25,1.5
55.1510989010989,3.1843779945032324e-06,2.034430170910901e-07,0.5,0.4444444444444445,0.4666666666666667,0.25,1.5
56.15384615384615,2.9986920315857404e-06,1.8293932506062179e-07,0.5,0.4444444444444445,0.4666666666666667,0.25,1.5
57.15659340659341,2.8238797750999696e-06,1.6471846933737366e-07,0.5,0.4444444444444445,0.4666666666666667,0.25,1.5
58.15934065934066,2.6592135432270984e-06,1.4841107796969574e-07,0.5,0.4444444444444445,0.4666666666666667,0.25,1.5
59.16208791208791,2.5039850289110297e-06,1.3362439440816168e-07,0.5,0.4444444444444445,0.4666666666666667,0.25,1.5
60.16483516483517,2.3575141349927587e-06,1.1997845307159919e-07,0.5,0.4444444444444445,0.4666666666666667,0.25,1.5
61.167582417582416,2.2190624420738282e-06,1.070528817700177e-07,0.5,0.4444444444444445,0.4666666666666667,0.25,1.5
62.17032967032967,2.0887549281228983e-06,9.52803336587983e-08,0.5,0.4444444444444445,0.4666666666666667,0.25,1.5
63.17307692307692,1.965840966859212e-06,8.42697972827587e-08,0.5,0.4444444444444445,0.4666666666666667,0.25,1.5
64.17582417582418,1.850162689333439e-06,7.418451242198237e-08,0.5,0.4444444444444445,0.4666666666666667,0.25,1.5
65.17857142857143,1.7418482776111913e-06,6.591155635653648e-08,0.5,0.4444444444444445,0.4666666666666667,0.25,1.5
66.18131868131869,1.6406365135108676e-06,5.973587212815162e-08,0.5,0.4444444444444445,0.4666666666666667,0.25,1.5
67.18406593406593,1.54526959696155e-06,5.424544928881972e-08,0.5,0.4444444444444445,0.4666666666666667,0.25,1.5
68.18681318681318,1.455199019622124e-06,4.8966455814824684e-08,0.5,0.4444444444444445,0.4666666666666667,0.25,1.5
69.18956043956044,1.3701237038544173e-06,4.381729501541212e-08,0.5,0.4444444444444445,0.4666666666666667,0.25,1.5
70.1923076923077,1.290043314581294e-06,3.918643405576985e-08,0.5,0.4444444444444445,0.4666666666666667,0.25,1.5
71.19505494505495,1.2146585022549421e-06,3.516134484759052e-08,0.5,0.4444444444444445,0.4666666666666667,0.25,1.5
72.19780219780219,1.1436973340441736e-06,3.159694035272765e-08,0.5,0.4444444444444445,0.4666666666666667,0.25,1.5
73.20054945054945,1.076884506009372e-06,2.837380217533008e-08,0.5,0.4444444444444445,0.4666666666666667,0.25,1.5
74.2032967032967,1.0139253767905946e-06,2.5451472645430376e-08,0.5,0.4444444444444445,0.4666666666666667,0.25,1.5
75.20604395604396,9.547500250783588e-07,2.2826187515133988e-08,0.5,0.4444444444444445,0.4666666666666667,0.25,1.5
76.20879120879121,8.990998040656504e-07,2.0467531720801365e-08,0.5,0.4444444444444445,0.4666666666666667,0.25,1.5
77.21153846153847,8.467257807248445e-07,1.8344434117221285e-08,0.5,0.4444444444444445,0.4666666666666667,0.25,1.5
78.21428571428571,7.973790220283167e-07,1.642582355918255e-08,0.5,0.4444444444444445,0.4666666666666667,0.25,1.5
79.21703296703296,7.508337821022112e-07,1.4685605822365306e-08,0.5,0.4444444444444445,0.4666666666666667,0.25,1.5
80.21978021978022,7.070304138673458e-07,1.3133338344116574e-08,0.5,0.4444444444444445,0.4666666666666667,0.25,1.5
81.22252747252747,6.65830137220364e-07,1.1761593346387254e-08,0.5,0.4444444444444445,0.4666666666666667,0.25,1.5
82.22527472527473,6.270679693615249e-07,1.0557318870241937e-08,0.5,0.4444444444444445,0.4666666666666667,0.25,1.5
83.22802197802197,5.905789274910884e-07,9.507462956745228e-09,0.5,0.4444444444444445,0.4666666666666667,0.25,1.5
84.23076923076923,5.562213468625421e-07,8.601140054211856e-09,0.5,0.4444444444444445,0.4666666666666667,0.25,1.5
85.23351648351648,5.23911495476534e-07,7.832846960942387e-09,0.5,0.4444444444444445,0.4666666666666667,0.25,1.5
86.23626373626374,4.935224875034556e-07,7.193071188106072e-09,0.5,0.4444444444444445,0.4666666666666667,0.25,1.5
87.23901098901099,4.6492421177791526e-07,6.672000591032272e-09,0.5,0.4444444444444445,0.4666666666666667,0.25,1.5
88.24175824175825,4.379865571345213e-07,6.25982302505035e-09,0.5,0.4444444444444445,0.4666666666666667,0.25,1.5
89.24450549450549,4.126056557077806e-07,5.935414043197838e-09,0.5,0.4444444444444445,0.4666666666666667,0.25,1.5
90.24725274725274,3.886951455063459e-07,5.6701032061634785e-09,0.5,0.4444444444444445,0.4666666666666667,0.25,1.5
91.25,3.6614591901896385e-07,5.445024641819997e-09,0.5,0.4444444444444445,0.4666666666666667,0.25,1.5
92.25274725274726,3.4484883541322585e-07,5.241326841286206e-09,0.5,0.4444444444444445,0.4666666666666667,0.25,1.5
93.25549450549451,3.246964534778271e-07,5.040297915508788e-09,0.5,0.4444444444444445,0.4666666666666667,0.25,1.5
94.25824175824175,3.056367762190586e-07,4.8277805859296915e-09,0.5,0.4444444444444445,0.4666666666666667,0.25,1.5
95.26098901098901,2.87607939125231e-07,4.5888069808776285e-09,0.5,0.4444444444444445,0.4666666666666667,0.25,1.5
96.26373626373626,2.7052717087883917e-07,4.306691784350338e-09,0.5,0.4444444444444445,0.4666666666666667,0.25,1.5
97.26648351648352,2.543117001623778e-07,3.964749680345557e-09,0.5,0.4444444444444445,0.4666666666666667,0.25,1.5
98.26923076923077,2.388787556583413e-07,3.546295352861024e-09,0.5,0.4444444444444445,0.4666666666666667,0.25,1.5
99.27197802197801,2.2416325484078186e-07,3.0452173936594323e-09,0.5,0.4444444444444445,0.4666666666666667,0.25,1.5
100.27472527472527,2.1017339736631385e-07,2.499210611379872e-09,0.5,0.4444444444444445,0.4666666666666667,0.25,1.5
101.27747252747253,1.9686857399774486e-07,1.9167931046775394e-09,0.5,0.4444444444444445,0.4666666666666667,0.25,1.5
102.28021978021978,1.8420030243689624e-07,1.3017766574531792e-09,0.5,0.4444444444444445,0.4666666666666667,0.25,1.5
103.28296703296704,1.7212010038558925e-07,6.579730536075362e-10,0.5,0.4444444444444445,0.4666666666666667,0.25,1.5
104.28571428571428,1.6057948554564543e-07,-1.080592295863549e-11,0.5,0.4444444444444445,0.4666666666666667,0.25,1.5
105.28846153846153,1.503752587382352e-07,-4.684738011288076e-10,0.5,0.4444444444444445,0.4666666666666667,0.25,1.5
106.29120879120879,1.4308863191158144e-07,-2.599155752879838e-10,0.5,0.4444444444444445,0.4666666666666667,0.25,1.5
107.29395604395604,1.3650817400790453e-07,5.166719211559727e-11,0.5,0.4444444444444445,0.4666666666666667,0.25,1.5
108.2967032967033,1.2951049030830533e-07,2.0685164416476115e-10,0.5,0.4444444444444445,0.4666666666666667,0.25,1.5
109.29945054945055,1.221897798273561e-07,2.4468579084774977e-10,0.5,0.4444444444444445,0.4666666666666667,0.25,1.5
110.3021978021978,1.151930411782317e-07,2.5680866925289873e-10,0.5,0.4444444444444445,0.4666666666666667,0.25,1.5
111.30494505494505,1.0871171630818507e-07,2.776263965782883e-10,0.5,0.4444444444444445,0.4666666666666667,0.25,1.5
112.3076923076923,1.0259023324115202e-07,2.901464997238918e-10,0.5,0.4444444444444445,0.4666666666666667,0.25,1.5
113.31043956043956,9.673063526258907e-08,2.8471710663496405e-10,0.5,0.4444444444444445,0.4666666666666667,0.25,1.5
114.31318681318682,9.115104986197715e-08,2.689575527623359e-10,0.5,0.4444444444444445,0.4666666666666667,0.25,1.5
115.31593406593406,8.586380887269292e-08,2.4861295517158043e-10,0.5,0.4444444444444445,0.4666666666666667,0.25,1.5
116.31868131868131,8.087389278997681e-08,2.2796466108911142e-10,0.5,0.4444444444444445,0.4666666666666667,0.25,1.5
117.32142857142857,7.616848664529293e-08,2.0820393154244485e-10,0.5,0.4444444444444445,0.4666666666666667,0.25,1.5
118.32417582417582,7.173148654430149e-08,1.8944720000568244e-10,0.5,0.4444444444444445,0.4666666666666667,0.25,1.5
119.32692307692308,6.75406888724354e-08,1.713981701872748e-10,0.5,0.4444444444444445,0.4666666666666667,0.25,1.5
120.32967032967034,6.356468224030894e-08,1.5344725872797475e-10,0.5,0.4444444444444445,0.4666666666666667,0.25,1.5
121.33241758241758,5.980249027481298e-08,1.3557551769802143e-10,0.5,0.4444444444444445,0.4666666666666667,0.25,1.5
122.33516483516483,5.6254112975947456e-08,1.1778294709741438e-10,0.5,0.4444444444444445,0.4666666666666667,0.25,1.5
123.33791208791209,5.2919550343712387e-08,1.0006954692615379e-10,0.5,0.4444444444444445,0.4666666666666667,0.25,1.5
124.34065934065934,4.979656012296619e-08,8.23858096482228e-11,0.5,0.4444444444444445,0.4666666666666667,0.25,1.5
125.3434065934066,4.683868742892245e-08,6.370604160410454e-11,0.5,0.4444444444444445,0.4666666666666667,0.25,1.5
126.34615384615384,4.402746166930602e-08,4.362242412260404e-11,0.5,0.4444444444444445,0.4666666666666667,0.25,1.5
127.3489010989011,4.136288284411682e-08,2.213495720372067e-11,0.5,0.4444444444444445,0.4666666666666667,0.25,1.5
128.35164835164835,3.8844950953354884e-08,-7.563591525452535e-13,0.5,0.4444444444444445,0.4666666666666667,0.25,1.5
129.3543956043956,3.647366599702026e-08,-2.5051524946193386e-11,0.5,0.4444444444444445,0.4666666666666667,0.25,1.5
130.35714285714286,3.4416932525738555e-08,-7.314027910663823e-11,0.5,0.4444444444444445,0.4666666666666667,0.25,1.5
131.3598901098901,3.218171821526163e-08,-7.927773870757584e-11,0.5,0.4444444444444445,0.4666666666666667,0.25,1.5
132.36263736263737,3.0076383742337766e-08,-8.458318862106942e-11,0.5,0.4444444444444445,0.4666666666666667,0.25,1.5
133.3653846153846,2.8091178519335068e-08,-8.775640731842566e-11,0.5,0.4444444444444445,0.4666666666666667,0.25,1.5
134.36813186813185,2.6216351958621472e-08,-8.749717327095174e-11,0.5,0.4444444444444445,0.4666666666666667,0.25,1.5
135.37087912087912,2.4443427813481495e-08,-8.255563601066981e-11,0.5,0.4444444444444445,0.4666666666666667,0.25,1.5
136.37362637362637,2.282482091041984e-08,-7.408879547065358e-11,0.5,0.4444444444444445,0.4666666666666667,0.25,1.5
137.37637362637363,2.1421413779518025e-08,-6.358835574786588e-11,0.5,0.4444444444444445,0.4666666666666667,0.25,1.5
138.37912087912088,2.0271507212714904e-08,-5.174651982088929e-11,0.5,0.4444444444444445,0.4666666666666667,0.25,1.5
139.38186813186812,1.932296077979945e-08,-3.98429366819116e-11,0.5,0.4444444444444445,0.4666666666666667,0.25,1.5
140.3846153846154,1.8512362720110774e-08,-2.923046638753763e-11,0.5,0.4444444444444445,0.4666666666666667,0.25,1.5
141.38736263736263,1.780501410847794e-08,-2.1032207564408142e-11,0.5,0.4444444444444445,0.4666666666666667,0.25,1.5
142.3901098901099,1.7117038579231877e-08,-1.4876400984149906e-11,0.5,0.4444444444444445,0.4666666666666667,0.25,1.5
143.39285714285714,1.6359124861922262e-08,-1.0226081380391373e-11,0.5,0.4444444444444445,0.4666666666666667,0.25,1.5
144.39560439560438,1.551591567043676e-08,-5.481875247430105e-12,0.5,0.4444444444444445,0.4666666666666667,0.25,1.5
145.39835164835165,1.4475664207229107e-08,-4.317289919663198e-12,0.5,0.4444444444444445,0.4666666666666667,0.25,1.5
146.4010989010989,1.3411611803438896e-08,-2.74423083496842e-12,0.5,0.4444444444444445,0.4666666666666667,0.25,1.5
147.40384615384616,1.2330889242930382e-08,-7.79961245379926e-13,0.5,0.4444444444444445,0.4666666666666667,0.25,1.5
148.4065934065934,1.1453887337583947e-08,1.0419643053214185e-12,0.5,0.4444444444444445,0.4666666666666667,0.25,1.5
149.40934065934067,1.0821172445780768e-08,2.387559103426424e-12,0.5,0.4444444444444445,0.4666666666666667,0.25,1.5
150.4120879120879,1.026775888648554e-08,3.061283584220531e-12,0.5,0.4444444444444445,0.4666666666666667,0.25,1.5
151.41483516483515,9.728242539478808e-09,3.2911901464101698e-12,0.5,0.4444444444444445,0.4666666666666667,0.25,1.5
152.41758241758242,9.18733236917785e-09,3.2513446535167325e-12,0.5,0.4444444444444445,0.4666666666666667,0.25,1.5
153.42032967032966,8.65991097239919e-09,3.116499498097445e-12,0.5,0.4444444444444445,0.4666666666666667,0.25,1.5
154.42307692307693,8.15806373105228e-09,2.9410334589435265e-12,0.5,0.4444444444444445,0.4666666666666667,0.25,1.5
155.42582417582418,7.684890053997265e-09,2.744097999253892e-12,0.5,0.4444444444444445,0.4666666666666667,0.25,1.5
156.42857142857142,7.2402857829638115e-09,2.5350160148663775e-12,0.5,0.4444444444444445,0.4666666666666667,0.25,1.5
157.4313186813187,6.827195643065552e-09,2.325589747292626e-12,0.5,0.4444444444444445,0.4666666666666667,0.25,1.5
158.43406593406593,6.446452409413153e-09,2.1281257254927162e-12,0.5,0.4444444444444445,0.4666666666666667,0.25,1.5
159.4368131868132,6.098351877622182e-09,1.953489080161095e-12,0.5,0.4444444444444445,0.4666666666666667,0.25,1.5
160.43956043956044,5.783189843308252e-09,1.8125449419922318e-12,0.5,0.4444444444444445,0.4666666666666667,0.25,1.5
161.44230769230768,5.5012621020869435e-09,1.716158441680579e-12,0.5,0.4444444444444445,0.4666666666666667,0.25,1.5
162.44505494505495,5.252864449573841e-09,1.675194709920595e-12,0.5,0.4444444444444445,0.4666666666666667,0.25,1.5
163.4478021978022,5.038292681384551e-09,1.7005188774067402e-12,0.5,0.4444444444444445,0.4666666666666667,0.25,1.5
164.45054945054946,4.857842593134652e-09,1.8029960748334754e-12,0.5,0.4444444444444445,0.4666666666666667,0.25,1.5
165.4532967032967,4.713830303337165e-09,1.990409680947056e-12,0.5,0.4444444444444445,0.4666666666666667,0.25,1.5
166.45604395604394,4.636096658184492e-09,2.2285575170078392e-12,0.5,0.4444444444444445,0.4666666666666667,0.25,1.5
167.4587912087912,4.6409456383453544e-09,2.503886213312332e-12,0.5,0.4444444444444445,0.4666666666666667,0.25,1.5
168.46153846153845,4.736751684873815e-09,2.8149379291375733e-12,0.5,0.4444444444444445,0.4666666666666667,0.25,1.5
169.46428571428572,4.931889238823936e-09,3.1602548237606354e-12,0.5,0.4444444444444445,0.4666666666666667,0.25,1.5
170.46703296703296,5.234732741249771e-09,3.5383790564585527e-12,0.5,0.4444444444444445,0.4666666666666667,0.25,1.5
171.4697802197802,5.653656633205381e-09,3.94785278650839e-12,0.5,0.4444444444444445,0.4666666666666667,0.25,1.5
172.47252747252747,6.197035355744846e-09,4.387218173187214e-12,0.5,0.4444444444444445,0.4666666666666667,0.25,1.5
173.47527472527472,6.873243349922193e-09,4.855017375772055e-12,0.5,0.4444444444444445,0.4666666666666667,0.25,1.5
