time,Eh,El,R0_low_target,R0_low_adj,R0_high_adj,theta,p_recover
0.0,0.0,0.0,0.5,0.3333333333333333,0.35,1.0,1.5
1.0027472527472527,2.1191930918352855e-05,1.708699892239738e-05,0.5,0.3333333333333333,0.35,1.0,1.5
2.0054945054945055,3.4377049297941204e-05,2.3494339348442686e-05,0.5,0.3333333333333333,0.35,1.0,1.5
3.008241758241758,4.2065960694629423e-05,2.4379485125518785e-05,0.5,0.3333333333333333,0.35,1.0,1.5
4.010989010989011,4.603209466732784e-05,2.2626914058939168e-05,0.5,0.3333333333333333,0.35,1.0,1.5
5.013736263736264,4.7515328356729287e-05,1.9805405180314072e-05,0.5,0.3333333333333333,0.35,1.0,1.5
6.016483516483516,4.737703571514916e-05,1.6742722403774807e-05,0.5,0.3333333333333333,0.35,1.0,1.5
7.019230769230769,4.620809042881028e-05,1.3836405393552618e-05,0.5,0.3333333333333333,0.35,1.0,1.5
8.021978021978022,4.4411389851536306e-05,1.126217223533953e-05,0.5,0.3333333333333333,0.35,1.0,1.5
9.024725274725274,4.225881416006399e-05,9.069325317001276e-06,0.5,0.3333333333333333,0.35,1.0,1.5
10.027472527472527,3.993095272068406e-05,7.248051391228967e-06,0.5,0.3333333333333333,0.35,1.0,1.5
11.030219780219781,3.754669777782293e-05,5.760662777692451e-06,0.5,0.3333333333333333,0.35,1.0,1.5
12.032967032967033,3.5182059208829554e-05,4.560164592133947e-06,0.5,0.3333333333333333,0.35,1.0,1.5
13.035714285714285,3.288511429681099e-05,3.599293489633358e-06,0.5,0.3333333333333333,0.35,1.0,1.5
14.038461538461538,3.068442384368011e-05,2.8348513589983517e-06,0.5,0.3333333333333333,0.35,1.0,1.5
15.041208791208792,2.85950702222738e-05,2.229028618454185e-06,0.5,0.3333333333333333,0.35,1.0,1.5
16.043956043956044,2.6624104477843882e-05,1.7506501439934666e-06,0.5,0.3333333333333333,0.35,1.0,1.5
17.046703296703296,2.4773403247577604e-05,1.3737201234565195e-06,0.5,0.3333333333333333,0.35,1.0,1.5
18.049450549450547,2.3040867185710115e-05,1.0771587788937115e-06,0.5,0.3333333333333333,0.35,1.0,1.5
19.052197802197803,2.1422491081112775e-05,8.440587829921749e-07,0.5,0.3333333333333333,0.35,1.0,1.5
20.054945054945055,1.9913205364218714e-05,6.611273814121218e-07,0.5,0.3333333333333333,0.35,1.0,1.5
21.057692307692307,1.8507274084838292e-05,5.176970081376328e-07,0.5,0.3333333333333333,0.35,1.0,1.5
22.060439560439562,1.719863681199483e-05,4.05296339583173e-07,0.5,0.3333333333333333,0.35,1.0,1.5
23.063186813186814,1.598124576427824e-05,3.173397301239579e-07,0.5,0.3333333333333333,0.35,1.0,1.5
24.065934065934066,1.4849155942846587e-05,2.482779192701718e-07,0.5,0.3333333333333333,0.35,1.0,1.5
25.068681318681318,1.3796730185202666e-05,1.9415556492982307e-07,0.5,0.3333333333333333,0.35,1.0,1.5
26.07142857142857,1.2818573171719547e-05,1.5156248947385757e-07,0.5,0.3333333333333333,0.35,1.0,1.5
27.074175824175825,1.1909513479306982e-05,1.1833976287793935e-07,0.5,0.3333333333333333,0.35,1.0,1.5
28.076923076923077,1.106466605465139e-05,9.228979082021608e-08,0.5,0.3333333333333333,0.35,1.0,1.5
29.07967032967033,1.027943612361766e-05,7.228657220552928e-08,0.5,0.3333333333333333,0.35,1.0,1.5
30.082417582417584,9.54968260923858e-06,5.702828944687398e-08,0.5,0.3333333333333333,0.35,1.0,1.5
31.085164835164836,8.871699717937173e-06,4.505531577445742e-08,0.5,0.3333333333333333,0.35,1.0,1.5
32.08791208791209,8.242021383099345e-06,3.5495674342615064e-08,0.5,0.3333333333333333,0.35,1.0,1.5
33.09065934065934,7.657264091336878e-06,2.7828801697301203e-08,0.5,0.3333333333333333,0.35,1.0,1.5
34.09340659340659,7.11428402359795e-06,2.1688193811311775e-08,0.5,0.3333333333333333,0.35,1.0,1.5
35.09615384615385,6.610048133439531e-06,1.703146642946229e-08,0.5,0.3333333333333333,0.35,1.0,1.5
36.098901098901095,6.141332087783944e-06,1.3492031050440242e-08,0.5,0.3333333333333333,0.35,1.0,1.5
37.10164835164835,5.7056313972273855e-06,1.0833519679234218e-08,0.5,0.3333333333333333,0.35,1.0,1.5
38.104395604395606,5.3006146675700325e-06,8.649845968066261e-09,0.5,0.3333333333333333,0.35,1.0,1.5
39.107142857142854,4.924094865500056e-06,6.752728383621162e-09,0.5,0.3333333333333333,0.35,1.0,1.5
40.10989010989011,4.574467632087444e-06,5.119947328283502e-09,0.5,0.3333333333333333,0.35,1.0,1.5
41.112637362637365,4.249877907772992e-06,3.6866907885917385e-09,0.5,0.3333333333333333,0.35,1.0,1.5
42.11538461538461,3.948567308534756e-06,2.5996595413553624e-09,0.5,0.3333333333333333,0.35,1.0,1.5
43.11813186813187,3.6664000932784337e-06,1.826391255225243e-09,0.5,0.3333333333333333,0.35,1.0,1.5
44.120879120879124,3.4085074028796763e-06,1.6208603348740436e-09,0.5,0.3333333333333333,0.35,1.0,1.5
45.12362637362637,3.1671641461802326e-06,1.5319862594065168e-09,0.5,0.3333333333333333,0.35,1.0,1.5
46.12637362637363,2.9422587507429367e-06,1.3974831227140537e-09,0.5,0.3333333333333333,0.35,1.0,1.5
47.129120879120876,2.7333183541171383e-06,1.084729357692797e-09,0.5,0.3333333333333333,0.35,1.0,1.5
48.13186813186813,2.5393328797562585e-06,7.789060242229533e-10,0.5,0.3333333333333333,0.35,1.0,1.5
49.13461538461539,2.3589928257859525e-06,5.757353207777127e-10,0.5,0.3333333333333333,0.35,1.0,1.5
50.137362637362635,2.1918489587320036e-06,4.370810390115893e-10,0.5,0.3333333333333333,0.35,1.0,1.5
51.14010989010989,2.036636989457171e-06,3.7785037650169316e-10,0.5,0.3333333333333333,0.35,1.0,1.5
52.14285714285714,1.892189819987346e-06,4.2028852521709174e-10,0.5,0.3333333333333333,0.35,1.0,1.5
53.145604395604394,1.7579388687507872e-06,4.906322150051777e-10,0.5,0.3333333333333333,0.35,1.0,1.5
54.14835164835165,1.633213856588367e-06,5.314315614922761e-10,0.5,0.3333333333333333,0.35,1.0,1.5
55.1510989010989,1.5172783255530224e-06,5.091136673480186e-10,0.5,0.3333333333333333,0.35,1.0,1.5
56.15384615384615,1.4096209641515258e-06,4.343511726282373e-10,0.5,0.3333333333333333,0.35,1.0,1.5
57.15659340659341,1.3096561281891958e-06,3.032089353640432e-10,0.5,0.3333333333333333,0.35,1.0,1.5
58.15934065934066,1.216806633392339e-06,1.264799209142029e-10,0.5,0.3333333333333333,0.35,1.0,1.5
59.16208791208791,1.1306012076651458e-06,-2.0367821022747925e-11,0.5,0.3333333333333333,0.35,1.0,1.5
60.16483516483517,1.050519789798232e-06,-9.165922677153265e-11,0.5,0.3333333333333333,0.35,1.0,1.5
61.167582417582416,9.76100588220871e-07,-8.380040007881993e-11,0.5,0.3333333333333333,0.35,1.0,1.5
62.17032967032967,9.069871698778871e-07,-5.684507230428865e-11,0.5,0.3333333333333333,0.35,1.0,1.5
63.17307692307692,8.427439696196021e-07,-2.3042864652303103e-11,0.5,0.3333333333333333,0.35,1.0,1.5
64.17582417582418,7.829344919973143e-07,6.86010859083113e-12,0.5,0.3333333333333333,0.35,1.0,1.5
65.17857142857143,7.272879143508361e-07,2.949532018079487e-11,0.5,0.3333333333333333,0.35,1.0,1.5
66.18131868131869,6.755680325398402e-07,4.303584270890985e-11,0.5,0.3333333333333333,0.35,1.0,1.5
67.18406593406593,6.274616451369156e-07,4.2225976953313606e-11,0.5,0.3333333333333333,0.35,1.0,1.5
68.18681318681318,5.826721219212529e-07,2.3425620737392356e-11,0.5,0.3333333333333333,0.35,1.0,1.5
69.18956043956044,5.410776038341682e-07,3.385194373422421e-14,0.5,0.3333333333333333,0.35,1.0,1.5
70.1923076923077,5.025037802983265e-07,-1.9663972022705764e-11,0.5,0.3333333333333333,0.35,1.0,1.5
71.19505494505495,4.66744058555569e-07,-3.052982015274411e-11,0.5,0.3333333333333333,0.35,1.0,1.5
72.19780219780219,4.3260635687924706e-07,-3.830456222634756e-11,0.5,0.3333333333333333,0.35,1.0,1.5
73.20054945054945,4.02529288512206e-07,-3.060832392408692e-11,0.5,0.3333333333333333,0.35,1.0,1.5
74.2032967032967,3.74201950944439e-07,-2.5947155277508608e-11,0.5,0.3333333333333333,0.35,1.0,1.5
75.20604395604396,3.4762434417594623e-07,-2.4321056286612627e-11,0.5,0.3333333333333333,0.35,1.0,1.5
76.20879120879121,3.229224198517025e-07,-2.431911462153787e-11,0.5,0.3333333333333333,0.35,1.0,1.5
77.21153846153847,3.00180396014704e-07,-2.431911462153787e-11,0.5,0.3333333333333333,0.35,1.0,1.5
78.21428571428571,2.790826277117823e-07,-2.431911462153787e-11,0.5,0.3333333333333333,0.35,1.0,1.5
79.21703296703296,2.594306152261176e-07,-2.431911462153787e-11,0.5,0.3333333333333333,0.35,1.0,1.5
80.21978021978022,2.411024591291012e-07,-2.431911462153787e-11,0.5,0.3333333333333333,0.35,1.0,1.5
81.22252747252747,2.2402772333887493e-07,-2.431911462153787e-11,0.5,0.3333333333333333,0.35,1.0,1.5
82.22527472527473,2.0814808384682516e-07,-2.431911462153787e-11,0.5,0.3333333333333333,0.35,1.0,1.5
83.22802197802197,1.9338846702506554e-07,-2.431911462153787e-11,0.5,0.3333333333333333,0.35,1.0,1.5
84.23076923076923,1.796422888023831e-07,-2.431911462153787e-11,0.5,0.3333333333333333,0.35,1.0,1.5
85.23351648351648,1.6685541920748517e-07,-2.431911462153787e-11,0.5,0.3333333333333333,0.35,1.0,1.5
86.23626373626374,1.5500812578048677e-07,-2.431911462153787e-11,0.5,0.3333333333333333,0.35,1.0,1.5
87.23901098901099,1.439740706723758e-07,-2.431911462153787e-11,0.5,0.3333333333333333,0.35,1.0,1.5
88.24175824175825,1.337308158037521e-07,-2.431911462153787e-11,0.5,0.3333333333333333,0.35,1.0,1.5
89.24450549450549,1.2422870579407386e-07,-2.431911462153787e-11,0.5,0.3333333333333333,0.35,1.0,1.5
90.24725274725274,1.1538101833487688e-07,-2.431911462153787e-11,0.5,0.3333333333333333,0.35,1.0,1.5
91.25,1.0718328813937549e-07,-2.431911462153787e-11,0.5,0.3333333333333333,0.35,1.0,1.5
92.25274725274726,9.955067972618299e-08,-2.431911462153787e-11,0.5,0.3333333333333333,0.35,1.0,1.5
93.25549450549451,9.244383142746923e-08,-2.431911462153787e-11,0.5,0.3333333333333333,0.35,1.0,1.5
94.25824175824175,8.586274324323431e-08,-2.431911462153787e-11,0.5,0.3333333333333333,0.35,1.0,1.5
95.26098901098901,7.976717661720716e-08,-2.431911462153787e-11,0.5,0.3333333333333333,0.35,1.0,1.5
96.26373626373626,7.408094961603297e-08,-2.431911462153787e-11,0.5,0.3333333333333333,0.35,1.0,1.5
97.26648351648352,6.880225255029093e-08,-2.431911462153787e-11,0.5,0.3333333333333333,0.35,1.0,1.5
98.26923076923077,6.39223365574038e-08,-2.431911462153787e-11,0.5,0.3333333333333333,0.35,1.0,1.5
99.27197802197801,5.9372889516922125e-08,-2.431911462153787e-11,0.5,0.3333333333333333,0.35,1.0,1.5
100.27472527472527,5.51394072520755e-08,-2.431911462153787e-11,0.5,0.3333333333333333,0.35,1.0,1.5
101.27747252747253,5.12217902070614e-08,-2.431911462153787e-11,0.5,0.3333333333333333,0.35,1.0,1.5
102.28021978021978,4.757516064851058e-08,-2.431911462153787e-11,0.5,0.3333333333333333,0.35,1.0,1.5
103.28296703296704,4.4162426945151145e-08,-2.431911462153787e-11,0.5,0.3333333333333333,0.35,1.0,1.5
104.28571428571428,4.0983589096983145e-08,-2.431911462153787e-11,0.5,0.3333333333333333,0.35,1.0,1.5
105.28846153846153,3.803864710400648e-08,-2.431911462153787e-11,0.5,0.3333333333333333,0.35,1.0,1.5
106.29120879120879,3.532760096622119e-08,-2.431911462153787e-11,0.5,0.3333333333333333,0.35,1.0,1.5
107.29395604395604,3.282527998558625e-08,-2.431911462153787e-11,0.5,0.3333333333333333,0.35,1.0,1.5
108.2967032967033,3.0478556868512864e-08,-2.431911462153787e-11,0.5,0.3333333333333333,0.35,1.0,1.5
109.29945054945055,2.828572114604622e-08,-2.431911462153787e-11,0.5,0.3333333333333333,0.35,1.0,1.5
110.3021978021978,2.6246772818186344e-08,-2.431911462153787e-11,0.5,0.3333333333333333,0.35,1.0,1.5
111.30494505494505,2.4361711884933176e-08,-2.431911462153787e-11,0.5,0.3333333333333333,0.35,1.0,1.5
112.3076923076923,2.2806090376866523e-08,-2.431911462153787e-11,0.5,0.3333333333333333,0.35,1.0,1.5
113.31043956043956,2.1078000711217496e-08,-2.431911462153787e-11,0.5,0.3333333333333333,0.35,1.0,1.5
114.31318681318682,1.948769189631272e-08,-2.431911462153787e-11,0.5,0.3333333333333333,0.35,1.0,1.5
115.31593406593406,1.80246860031781e-08,-2.431911462153787e-11,0.5,0.3333333333333333,0.35,1.0,1.5
116.31868131868131,1.6678505102839462e-08,-2.431911462153787e-11,0.5,0.3333333333333333,0.35,1.0,1.5
117.32142857142857,1.5437629637558447e-08,-2.431911462153787e-11,0.5,0.3333333333333333,0.35,1.0,1.5
118.32417582417582,1.4271783925544194e-08,-2.431911462153787e-11,0.5,0.3333333333333333,0.35,1.0,1.5
119.32692307692308,1.3159357764735805e-08,-2.431911462153787e-11,0.5,0.3333333333333333,0.35,1.0,1.5
120.32967032967034,1.2085142778398811e-08,-2.431911462153787e-11,0.5,0.3333333333333333,0.35,1.0,1.5
121.33241758241758,1.1033930589798761e-08,-2.431911462153787e-11,0.5,0.3333333333333333,0.35,1.0,1.5
122.33516483516483,9.99051282220116e-09,-2.431911462153787e-11,0.5,0.3333333333333333,0.35,1.0,1.5
123.33791208791209,8.939681098871557e-09,-2.431911462153787e-11,0.5,0.3333333333333333,0.35,1.0,1.5
124.34065934065934,7.866227043075485e-09,-2.431911462153787e-11,0.5,0.3333333333333333,0.35,1.0,1.5
125.3434065934066,6.754942278078482e-09,-2.431911462153787e-11,0.5,0.3333333333333333,0.35,1.0,1.5
126.34615384615384,5.590618427146095e-09,-2.431911462153787e-11,0.5,0.3333333333333333,0.35,1.0,1.5
127.3489010989011,4.358047113543828e-09,-2.431911462153787e-11,0.5,0.3333333333333333,0.35,1.0,1.5
128.35164835164835,3.065573964897679e-09,-2.431911462153787e-11,0.5,0.3333333333333333,0.35,1.0,1.5
129.3543956043956,2.104742485302522e-09,-2.431911462153787e-11,0.5,0.3333333333333333,0.35,1.0,1.5
130.35714285714286,1.8380314566172817e-09,-2.431911462153787e-11,0.5,0.3333333333333333,0.35,1.0,1.5
131.3598901098901,2.4218237236244662e-09,-2.431911462153787e-11,0.5,0.3333333333333333,0.35,1.0,1.5
132.36263736263737,3.389555716754045e-09,-2.431911462153787e-11,0.5,0.3333333333333333,0.35,1.0,1.5
133.3653846153846,4.501136586964617e-09,-2.431911462153787e-11,0.5,0.3333333333333333,0.35,1.0,1.5
134.36813186813185,5.471422738829176e-09,-2.431911462153787e-11,0.5,0.3333333333333333,0.35,1.0,1.5
135.37087912087912,5.853680869452841e-09,-2.431911462153787e-11,0.5,0.3333333333333333,0.35,1.0,1.5
136.37362637362637,6.44787547724226e-09,-2.431911462153787e-11,0.5,0.3333333333333333,0.35,1.0,1.5
137.37637362637363,4.500321268525722e-09,-2.431911462153787e-11,0.5,0.3333333333333333,0.35,1.0,1.5
138.37912087912088,3.3346680837423377e-09,-2.431911462153787e-11,0.5,0.3333333333333333,0.35,1.0,1.5
139.38186813186812,2.9090599212987587e-09,-2.431911462153787e-11,0.5,0.3333333333333333,0.35,1.0,1.5
140.3846153846154,2.7463830819703453e-09,-2.431911462153787e-11,0.5,0.3333333333333333,0.35,1.0,1.5
141.38736263736263,2.580298209078429e-09,-2.431911462153787e-11,0.5,0.3333333333333333,0.35,1.0,1.5
142.3901098901099,2.418867010440775e-09,-2.431911462153787e-11,0.5,0.3333333333333333,0.35,1.0,1.5
143.39285714285714,2.264246333899578e-09,-2.431911462153787e-11,0.5,0.3333333333333333,0.35,1.0,1.5
144.39560439560438,2.1156198837967008e-09,-2.431911462153787e-11,0.5,0.3333333333333333,0.35,1.0,1.5
145.39835164835165,1.973466513098614e-09,-2.431911462153787e-11,0.5,0.3333333333333333,0.35,1.0,1.5
146.4010989010989,1.8385151630467284e-09,-2.431911462153787e-11,0.5,0.3333333333333333,0.35,1.0,1.5
147.40384615384616,1.7115960376533692e-09,-2.431911462153787e-11,0.5,0.3333333333333333,0.35,1.0,1.5
148.4065934065934,1.5928070810931153e-09,-2.431911462153787e-11,0.5,0.3333333333333333,0.35,1.0,1.5
149.40934065934067,1.4815157914484178e-09,-2.431911462153787e-11,0.5,0.3333333333333333,0.35,1.0,1.5
150.4120879120879,1.3765276521452297e-09,-2.431911462153787e-11,0.5,0.3333333333333333,0.35,1.0,1.5
151.41483516483515,1.2746742770975737e-09,-2.431911462153787e-11,0.5,0.3333333333333333,0.35,1.0,1.5
152.41758241758242,1.1749385428681675e-09,-2.431911462153787e-11,0.5,0.3333333333333333,0.35,1.0,1.5
153.42032967032966,1.07636241657552e-09,-2.431911462153787e-11,0.5,0.3333333333333333,0.35,1.0,1.5
154.42307692307693,9.779878653381293e-10,-2.431911462153787e-11,0.5,0.3333333333333333,0.35,1.0,1.5
155.42582417582418,8.788568562745044e-10,-2.431911462153787e-11,0.5,0.3333333333333333,0.35,1.0,1.5
156.42857142857142,7.780113565031456e-10,-2.431911462153787e-11,0.5,0.3333333333333333,0.35,1.0,1.5
157.4313186813187,6.744933331425534e-10,-2.431911462153787e-11,0.5,0.3333333333333333,0.35,1.0,1.5
158.43406593406593,5.673447533112372e-10,-2.431911462153787e-11,0.5,0.3333333333333333,0.35,1.0,1.5
159.4368131868132,4.55607584127694e-10,-2.431911462153787e-11,0.5,0.3333333333333333,0.35,1.0,1.5
160.43956043956044,3.383237927104337e-10,-2.431911462153787e-11,0.5,0.3333333333333333,0.35,1.0,1.5
161.44230769230768,2.1453534617795646e-10,-2.431911462153787e-11,0.5,0.3333333333333333,0.35,1.0,1.5
162.44505494505495,8.331103054297442e-11,-2.431911462153787e-11,0.5,0.3333333333333333,0.35,1.0,1.5
163.4478021978022,4.0129310673438003e-11,-2.431911462153787e-11,0.5,0.3333333333333333,0.35,1.0,1.5
164.45054945054946,1.1130450438768527e-11,-2.431911462153787e-11,0.5,0.3333333333333333,0.35,1.0,1.5
165.4532967032967,-2.800728368239082e-12,-2.431911462153787e-11,0.5,0.3333333333333333,0.35,1.0,1.5
166.45604395604394,-7.794039547922672e-13,-2.431911462153787e-11,0.5,0.3333333333333333,0.35,1.0,1.5
167.4587912087912,1.8079245471902973e-11,-2.431911462153787e-11,0.5,0.3333333333333333,0.35,1.0,1.5
168.46153846153845,5.4660041704639194e-11,-2.431911462153787e-11,0.5,0.3333333333333333,0.35,1.0,1.5
169.46428571428572,1.0984780653621205e-10,-2.431911462153787e-11,0.5,0.3333333333333333,0.35,1.0,1.5
170.46703296703296,1.8452736175941172e-10,-2.431911462153787e-11,0.5,0.3333333333333333,0.35,1.0,1.5
171.4697802197802,2.7958352916703304e-10,-2.431911462153787e-11,0.5,0.3333333333333333,0.35,1.0,1.5
172.47252747252747,3.9590113055187285e-10,-2.431911462153787e-11,0.5,0.3333333333333333,0.35,1.0,1.5
173.47527472527472,5.343649877067182e-10,-2.431911462153787e-11,0.5,0.3333333333333333,0.35,1.0,1.5
174.47802197802199,6.331002777826007e-10,-2.431911462153787e-11,0.5,0.3333333333333333,0.35,1.0,1.5
175.48076923076923,4.812648729835355e-10,-2.431911462153787e-11,0.5,0.3333333333333333,0.35,1.0,1.5
176.4835164835165,2.7454825574661553e-10,-2.431911462153787e-11,0.5,0.3333333333333333,0.35,1.0,1.5
177.48626373626374,7.706016559193577e-12,-2.431911462153787e-11,0.5,0.3333333333333333,0.35,1.0,1.5
178.48901098901098,-3.245062540913993e-10,-2.431911462153787e-11,0.5,0.3333333333333333,0.35,1.0,1.5
179.49175824175825,-7.273329657178328e-10,-2.431911462153787e-11,0.5,0.3333333333333333,0.35,1.0,1.5
180.4945054945055,-1.2060185278327477e-09,-2.431911462153787e-11,0.5,0.3333333333333333,0.35,1.0,1.5
181.49725274725276,-1.7658073499488295e-09,-2.431911462153787e-11,0.5,0.3333333333333333,0.35,1.0,1.5
182.5,-2.4119438415787093e-09,-2.431911462153787e-11,0.5,0.3333333333333333,0.35,1.0,1.5
183.50274725274724,-3.149672412235062e-09,-2.431911462153787e-11,0.5,0.3333333333333333,0.35,1.0,1.5
184.5054945054945,-3.984237471430574e-09,-2.431911462153787e-11,0.5,0.3333333333333333,0.35,1.0,1.5
185.50824175824175,-4.920883428677856e-09,-2.431911462153787e-11,0.5,0.3333333333333333,0.35,1.0,1.5
186.51098901098902,-5.72764934858886e-09,-2.431911462153787e-11,0.5,0.3333333333333333,0.35,1.0,1.5
187.51373626373626,-6.232651506954142e-09,-2.431911462153787e-11,0.5,0.3333333333333333,0.35,1.0,1.5
188.5164835164835,-6.706327070188152e-09,-2.431911462153787e-11,0.5,0.3333333333333333,0.35,1.0,1.5
189.51923076923077,-7.142634937852484e-09,-2.431911462153787e-11,0.5,0.3333333333333333,0.35,1.0,1.5
190.52197802197801,-7.535534009508697e-09,-2.431911462153787e-11,0.5,0.3333333333333333,0.35,1.0,1.5
191.52472527472528,-7.878983184718393e-09,-2.431911462153787e-11,0.5,0.3333333333333333,0.35,1.0,1.5
192.52747252747253,-8.166941363043133e-09,-2.431911462153787e-11,0.5,0.3333333333333333,0.35,1.0,1.5
193.53021978021977,-8.393367444044513e-09,-2.431911462153787e-11,0.5,0.3333333333333333,0.35,1.0,1.5
194.53296703296704,-8.552220327284118e-09,-2.431911462153787e-11,0.5,0.3333333333333333,0.35,1.0,1.5
195.53571428571428,-8.63745891232352e-09,-2.431911462153787e-11,0.5,0.3333333333333333,0.35,1.0,1.5
196.53846153846155,-8.643042098724304e-09,-2.431911462153787e-11,0.5,0.3333333333333333,0.35,1.0,1.5
197.5412087912088,-8.562928786048055e-09,-2.431911462153787e-11,0.5,0.3333333333333333,0.35,1.0,1.5
198.54395604395603,-8.522647742695293e-09,-2.431911462153787e-11,0.5,0.3333333333333333,0.35,1.0,1.5
199.5467032967033,-8.498937102311545e-09,-2.431911462153787e-11,0.5,0.3333333333333333,0.35,1.0,1.5
