time,Eh,El,R0_low_target,R0_low_adj,R0_high_adj,theta,p_recover
0.0,0.0,0.0,0.5,0.4,0.42000000000000004,0.5,1.5
1.0027472527472527,2.121868022364385e-05,1.8571564313467658e-05,0.5,0.4,0.42000000000000004,0.5,1.5
2.0054945054945055,3.4539413167642585e-05,2.773899735579629e-05,0.5,0.4,0.42000000000000004,0.5,1.5
3.008241758241758,4.248357855536104e-05,3.126046514220695e-05,0.5,0.4,0.42000000000000004,0.5,1.5
4.010989010989011,4.6783579528767086e-05,3.149146045311719e-05,0.5,0.4,0.42000000000000004,0.5,1.5
5.013736263736264,4.863793126266635e-05,2.990965784866184e-05,0.5,0.4,0.42000000000000004,0.5,1.5
6.016483516483516,4.886853667807967e-05,2.7417687712782367e-05,0.5,0.4,0.42000000000000004,0.5,1.5
7.019230769230769,4.8043844949504075e-05,2.456727440137923e-05,0.5,0.4,0.42000000000000004,0.5,1.5
8.021978021978022,4.654978955237643e-05,2.1672562670527245e-05,0.5,0.4,0.42000000000000004,0.5,1.5
9.024725274725274,4.465064440100659e-05,1.8909896319948135e-05,0.5,0.4,0.42000000000000004,0.5,1.5
10.027472527472527,4.252668217099746e-05,1.637081304345159e-05,0.5,0.4,0.42000000000000004,0.5,1.5
11.030219780219781,4.029877646467315e-05,1.4091123204592705e-05,0.5,0.4,0.42000000000000004,0.5,1.5
12.032967032967033,3.80474988237037e-05,1.2077308285796913e-05,0.5,0.4,0.42000000000000004,0.5,1.5
13.035714285714285,3.5825582131768845e-05,1.0318527198558145e-05,0.5,0.4,0.42000000000000004,0.5,1.5
14.038461538461538,3.3667135568648045e-05,8.795018234555382e-06,0.5,0.4,0.42000000000000004,0.5,1.5
15.041208791208792,3.159265265025777e-05,7.483112097302226e-06,0.5,0.4,0.42000000000000004,0.5,1.5
16.043956043956044,2.961398476595838e-05,6.358418018775869e-06,0.5,0.4,0.42000000000000004,0.5,1.5
17.046703296703296,2.7737094545409396e-05,5.397431928260254e-06,0.5,0.4,0.42000000000000004,0.5,1.5
18.049450549450547,2.5964082244028876e-05,4.578398208211526e-06,0.5,0.4,0.42000000000000004,0.5,1.5
19.052197802197803,2.4293593572312327e-05,3.881316095699536e-06,0.5,0.4,0.42000000000000004,0.5,1.5
20.054945054945055,2.2722890938475783e-05,3.2887887200651698e-06,0.5,0.4,0.42000000000000004,0.5,1.5
21.057692307692307,2.1248404737611628e-05,2.785907684832232e-06,0.5,0.4,0.42000000000000004,0.5,1.5
22.060439560439562,1.986603185000262e-05,2.359279367636636e-06,0.5,0.4,0.42000000000000004,0.5,1.5
23.063186813186814,1.857098612830983e-05,1.997555210553448e-06,0.5,0.4,0.42000000000000004,0.5,1.5
24.065934065934066,1.7358468635589643e-05,1.691077848691141e-06,0.5,0.4,0.42000000000000004,0.5,1.5
25.068681318681318,1.6223758105921176e-05,1.4313414487273046e-06,0.5,0.4,0.42000000000000004,0.5,1.5
26.07142857142857,1.5162299551665833e-05,1.2113698433904948e-06,0.5,0.4,0.42000000000000004,0.5,1.5
27.074175824175825,1.4169732457639638e-05,1.025396062026943e-06,0.5,0.4,0.42000000000000004,0.5,1.5
28.076923076923077,1.3241719804576452e-05,8.677480177304467e-07,0.5,0.4,0.42000000000000004,0.5,1.5
29.07967032967033,1.2374242859636136e-05,7.344325504544831e-07,0.5,0.4,0.42000000000000004,0.5,1.5
30.082417582417584,1.156331153226877e-05,6.214416204785622e-07,0.5,0.4,0.42000000000000004,0.5,1.5
31.085164835164836,1.080538252408521e-05,5.259019599556709e-07,0.5,0.4,0.42000000000000004,0.5,1.5
32.08791208791209,1.0096968165845735e-05,4.450011232592283e-07,0.5,0.4,0.42000000000000004,0.5,1.5
33.09065934065934,9.434870250545212e-06,3.7645883991508076e-07,0.5,0.4,0.42000000000000004,0.5,1.5
34.09340659340659,8.816113607737042e-06,3.1841501322267605e-07,0.5,0.4,0.42000000000000004,0.5,1.5
35.09615384615385,8.237845861420133e-06,2.691357942260565e-07,0.5,0.4,0.42000000000000004,0.5,1.5
36.098901098901095,7.697474859868013e-06,2.2738660092346873e-07,0.5,0.4,0.42000000000000004,0.5,1.5
37.10164835164835,7.1926172457934905e-06,1.9227455036356965e-07,0.5,0.4,0.42000000000000004,0.5,1.5
38.104395604395606,6.720822745283225e-06,1.6256030317626034e-07,0.5,0.4,0.42000000000000004,0.5,1.5
39.107142857142854,6.279948062284677e-06,1.3756733161841242e-07,0.5,0.4,0.42000000000000004,0.5,1.5
40.10989010989011,5.868006870258351e-06,1.1672889294214566e-07,0.5,0.4,0.42000000000000004,0.5,1.5
41.112637362637365,5.4830396117358155e-06,9.910534422970201e-08,0.5,0.4,0.42000000000000004,0.5,1.5
42.11538461538461,5.123290715958101e-06,8.407227332444165e-08,0.5,0.4,0.42000000000000004,0.5,1.5
43.11813186813187,4.787130506517792e-06,7.116026013834324e-08,0.5,0.4,0.42000000000000004,0.5,1.5
44.120879120879124,4.473030486508916e-06,6.008605367882259e-08,0.5,0.4,0.42000000000000004,0.5,1.5
45.12362637362637,4.179373683832279e-06,5.045999063993906e-08,0.5,0.4,0.42000000000000004,0.5,1.5
46.12637362637363,3.9054821532623186e-06,4.2662299043017866e-08,0.5,0.4,0.42000000000000004,0.5,1.5
47.129120879120876,3.6494522556057193e-06,3.602521663086385e-08,0.5,0.4,0.42000000000000004,0.5,1.5
48.13186813186813,3.410204323709919e-06,3.058298230334415e-08,0.5,0.4,0.42000000000000004,0.5,1.5
49.13461538461539,3.1866745109505882e-06,2.615041371830292e-08,0.5,0.4,0.42000000000000004,0.5,1.5
50.137362637362635,2.9778023376096054e-06,2.2495631562934527e-08,0.5,0.4,0.42000000000000004,0.5,1.5
51.14010989010989,2.7825209043698447e-06,1.947579251400065e-08,0.5,0.4,0.42000000000000004,0.5,1.5
52.14285714285714,2.5999361559946363e-06,1.693817941787504e-08,0.5,0.4,0.42000000000000004,0.5,1.5
53.145604395604394,2.42935419202698e-06,1.4718641149107257e-08,0.5,0.4,0.42000000000000004,0.5,1.5
54.14835164835165,2.2699262552221053e-06,1.2661872876854792e-08,0.5,0.4,0.42000000000000004,0.5,1.5
55.1510989010989,2.1208838870916036e-06,1.0668621915528072e-08,0.5,0.4,0.42000000000000004,0.5,1.5
56.15384615384615,1.9817102958841645e-06,8.812244064832606e-09,0.5,0.4,0.42000000000000004,0.5,1.5
57.15659340659341,1.8517550324068157e-06,7.0744246525634285e-09,0.5,0.4,0.42000000000000004,0.5,1.5
58.15934065934066,1.7283692610814916e-06,5.646977627789719e-09,0.5,0.4,0.42000000000000004,0.5,1.5
59.16208791208791,1.616527945622676e-06,4.090737420907103e-09,0.5,0.4,0.42000000000000004,0.5,1.5
60.16483516483517,1.5111788510401397e-06,2.9366508618665507e-09,0.5,0.4,0.42000000000000004,0.5,1.5
61.167582417582416,1.412308720002803e-06,2.18192269257484e-09,0.5,0.4,0.42000000000000004,0.5,1.5
62.17032967032967,1.3196163402030567e-06,1.7630434377456565e-09,0.5,0.4,0.42000000000000004,0.5,1.5
63.17307692307692,1.2329751882298617e-06,1.653047191924391e-09,0.5,0.4,0.42000000000000004,0.5,1.5
64.17582417582418,1.151950675615039e-06,1.6736887926595782e-09,0.5,0.4,0.42000000000000004,0.5,1.5
65.17857142857143,1.0761989676682928e-06,1.6839454684889398e-09,0.5,0.4,0.42000000000000004,0.5,1.5
66.18131868131869,1.0055759671361903e-06,1.6632683092382745e-09,0.5,0.4,0.42000000000000004,0.5,1.5
67.18406593406593,9.39325408502511e-07,1.5038104837541756e-09,0.5,0.4,0.42000000000000004,0.5,1.5
68.18681318681318,8.777367928868915e-07,1.271138785840563e-09,0.5,0.4,0.42000000000000004,0.5,1.5
69.18956043956044,8.203850121361538e-07,9.97575177001709e-10,0.5,0.4,0.42000000000000004,0.5,1.5
70.1923076923077,7.669018561378076e-07,6.778287112402474e-10,0.5,0.4,0.42000000000000004,0.5,1.5
71.19505494505495,7.169242679886924e-07,3.0320187207676726e-10,0.5,0.4,0.42000000000000004,0.5,1.5
72.19780219780219,6.701197630856867e-07,-1.241375576322373e-10,0.5,0.4,0.42000000000000004,0.5,1.5
73.20054945054945,6.264090099923099e-07,-5.120519553368929e-10,0.5,0.4,0.42000000000000004,0.5,1.5
74.2032967032967,5.856101547177718e-07,-8.048398920326496e-10,0.5,0.4,0.42000000000000004,0.5,1.5
75.20604395604396,5.474990968511925e-07,-9.618141836221573e-10,0.5,0.4,0.42000000000000004,0.5,1.5
76.20879120879121,5.118534566431683e-07,-9.447668020975948e-10,0.5,0.4,0.42000000000000004,0.5,1.5
77.21153846153847,4.785228876033996e-07,-8.192763709096536e-10,0.5,0.4,0.42000000000000004,0.5,1.5
78.21428571428571,4.473546858802764e-07,-6.475249902943658e-10,0.5,0.4,0.42000000000000004,0.5,1.5
79.21703296703296,4.181690667883783e-07,-4.5267626965887057e-10,0.5,0.4,0.42000000000000004,0.5,1.5
80.21978021978022,3.907862456422861e-07,-2.5789381841031405e-10,0.5,0.4,0.42000000000000004,0.5,1.5
81.22252747252747,3.643222531971882e-07,-2.0743919061489005e-10,0.5,0.4,0.42000000000000004,0.5,1.5
82.22527472527473,3.407322157403343e-07,1.0800045020423811e-11,0.5,0.4,0.42000000000000004,0.5,1.5
83.22802197802197,3.183353725524463e-07,1.233080005925437e-10,0.5,0.4,0.42000000000000004,0.5,1.5
84.23076923076923,2.971317236335235e-07,1.3008467610147274e-10,0.5,0.4,0.42000000000000004,0.5,1.5
85.23351648351648,2.77137394107387e-07,5.89416493764008e-11,0.5,0.4,0.42000000000000004,0.5,1.5
86.23626373626374,2.584015757458815e-07,-5.278271153090914e-12,0.5,0.4,0.42000000000000004,0.5,1.5
87.23901098901099,2.409276776981723e-07,-5.669520398084225e-11,0.5,0.4,0.42000000000000004,0.5,1.5
88.24175824175825,2.24714457049226e-07,-9.533123605317153e-11,0.5,0.4,0.42000000000000004,0.5,1.5
89.24450549450549,2.0964784127803338e-07,-1.2321346783975295e-10,0.5,0.4,0.42000000000000004,0.5,1.5
90.24725274725274,1.9565345860951096e-07,-1.416635064977509e-10,0.5,0.4,0.42000000000000004,0.5,1.5
91.25,1.8273130904365894e-07,-1.5068135202716481e-10,0.5,0.4,0.42000000000000004,0.5,1.5
92.25274725274726,1.7084098983292212e-07,-1.516623033237858e-10,0.5,0.4,0.42000000000000004,0.5,1.5
93.25549450549451,1.5977818670307925e-07,-1.516623033237858e-10,0.5,0.4,0.42000000000000004,0.5,1.5
94.25824175824175,1.4951449489603824e-07,-1.516623033237858e-10,0.5,0.4,0.42000000000000004,0.5,1.5
95.26098901098901,1.400499144117988e-07,-1.516623033237858e-10,0.5,0.4,0.42000000000000004,0.5,1.5
96.26373626373626,1.3117624795502065e-07,-1.516623033237858e-10,0.5,0.4,0.42000000000000004,0.5,1.5
97.26648351648352,1.226679227206816e-07,-1.516623033237858e-10,0.5,0.4,0.42000000000000004,0.5,1.5
98.26923076923077,1.146098022791787e-07,-1.516623033237858e-10,0.5,0.4,0.42000000000000004,0.5,1.5
99.27197802197801,1.0703794233188512e-07,-1.516623033237858e-10,0.5,0.4,0.42000000000000004,0.5,1.5
100.27472527472527,9.997838365889401e-08,-1.516623033237858e-10,0.5,0.4,0.42000000000000004,0.5,1.5
101.27747252747253,9.340367240882648e-08,-1.516623033237858e-10,0.5,0.4,0.42000000000000004,0.5,1.5
102.28021978021978,8.727747018959308e-08,-1.516623033237858e-10,0.5,0.4,0.42000000000000004,0.5,1.5
103.28296703296704,8.155364674148682e-08,-1.516623033237858e-10,0.5,0.4,0.42000000000000004,0.5,1.5
104.28571428571428,7.62131748333988e-08,-1.516623033237858e-10,0.5,0.4,0.42000000000000004,0.5,1.5
105.28846153846153,7.120655169077336e-08,-1.516623033237858e-10,0.5,0.4,0.42000000000000004,0.5,1.5
106.29120879120879,6.65435648336567e-08,-1.516623033237858e-10,0.5,0.4,0.42000000000000004,0.5,1.5
107.29395604395604,6.219757003653875e-08,-1.516623033237858e-10,0.5,0.4,0.42000000000000004,0.5,1.5
108.2967032967033,5.814237285311891e-08,-1.516623033237858e-10,0.5,0.4,0.42000000000000004,0.5,1.5
109.29945054945055,5.435178262476781e-08,-1.516623033237858e-10,0.5,0.4,0.42000000000000004,0.5,1.5
110.3021978021978,5.07996086928561e-08,-1.516623033237858e-10,0.5,0.4,0.42000000000000004,0.5,1.5
111.30494505494505,4.74596603987543e-08,-1.516623033237858e-10,0.5,0.4,0.42000000000000004,0.5,1.5
112.3076923076923,4.430574708383309e-08,-1.516623033237858e-10,0.5,0.4,0.42000000000000004,0.5,1.5
113.31043956043956,4.131214307822864e-08,-1.516623033237858e-10,0.5,0.4,0.42000000000000004,0.5,1.5
114.31318681318682,3.847419280303525e-08,-1.516623033237858e-10,0.5,0.4,0.42000000000000004,0.5,1.5
115.31593406593406,3.578308637252166e-08,-1.516623033237858e-10,0.5,0.4,0.42000000000000004,0.5,1.5
116.31868131868131,3.322044696231404e-08,-1.516623033237858e-10,0.5,0.4,0.42000000000000004,0.5,1.5
117.32142857142857,3.0767897748038676e-08,-1.516623033237858e-10,0.5,0.4,0.42000000000000004,0.5,1.5
118.32417582417582,2.840706190532182e-08,-1.516623033237858e-10,0.5,0.4,0.42000000000000004,0.5,1.5
119.32692307692308,2.6119562609789727e-08,-1.516623033237858e-10,0.5,0.4,0.42000000000000004,0.5,1.5
120.32967032967034,2.3887023037068638e-08,-1.516623033237858e-10,0.5,0.4,0.42000000000000004,0.5,1.5
121.33241758241758,2.1731230712170507e-08,-1.516623033237858e-10,0.5,0.4,0.42000000000000004,0.5,1.5
122.33516483516483,2.006748591701555e-08,-1.516623033237858e-10,0.5,0.4,0.42000000000000004,0.5,1.5
123.33791208791209,1.9188389798035236e-08,-1.516623033237858e-10,0.5,0.4,0.42000000000000004,0.5,1.5
124.34065934065934,1.8596446681043103e-08,-1.516623033237858e-10,0.5,0.4,0.42000000000000004,0.5,1.5
125.3434065934066,1.7920452389638166e-08,-1.516623033237858e-10,0.5,0.4,0.42000000000000004,0.5,1.5
126.34615384615384,1.704115813538703e-08,-1.516623033237858e-10,0.5,0.4,0.42000000000000004,0.5,1.5
127.3489010989011,1.5944652522924842e-08,-1.516623033237858e-10,0.5,0.4,0.42000000000000004,0.5,1.5
128.35164835164835,1.4723416564355531e-08,-1.516623033237858e-10,0.5,0.4,0.42000000000000004,0.5,1.5
129.3543956043956,1.3710944867979448e-08,-1.516623033237858e-10,0.5,0.4,0.42000000000000004,0.5,1.5
130.35714285714286,1.2865367423839424e-08,-1.516623033237858e-10,0.5,0.4,0.42000000000000004,0.5,1.5
131.3598901098901,1.2094316372286755e-08,-1.516623033237858e-10,0.5,0.4,0.42000000000000004,0.5,1.5
132.36263736263737,1.1353604599790665e-08,-1.516623033237858e-10,0.5,0.4,0.42000000000000004,0.5,1.5
133.3653846153846,1.0635450921298561e-08,-1.516623033237858e-10,0.5,0.4,0.42000000000000004,0.5,1.5
134.36813186813185,9.950615161161207e-09,-1.516623033237858e-10,0.5,0.4,0.42000000000000004,0.5,1.5
135.37087912087912,9.304809189633207e-09,-1.516623033237858e-10,0.5,0.4,0.42000000000000004,0.5,1.5
136.37362637362637,8.700091904517537e-09,-1.516623033237858e-10,0.5,0.4,0.42000000000000004,0.5,1.5
137.37637362637363,8.13387195537525e-09,-1.516623033237858e-10,0.5,0.4,0.42000000000000004,0.5,1.5
138.37912087912088,7.602615867273058e-09,-1.516623033237858e-10,0.5,0.4,0.42000000000000004,0.5,1.5
139.38186813186812,7.1000867926220836e-09,-1.516623033237858e-10,0.5,0.4,0.42000000000000004,0.5,1.5
140.3846153846154,6.625944593691433e-09,-1.516623033237858e-10,0.5,0.4,0.42000000000000004,0.5,1.5
141.38736263736263,6.180189270481136e-09,-1.516623033237858e-10,0.5,0.4,0.42000000000000004,0.5,1.5
142.3901098901099,5.762820822991164e-09,-1.516623033237858e-10,0.5,0.4,0.42000000000000004,0.5,1.5
143.39285714285714,5.373839251221542e-09,-1.516623033237858e-10,0.5,0.4,0.42000000000000004,0.5,1.5
144.39560439560438,5.013244555172259e-09,-1.516623033237858e-10,0.5,0.4,0.42000000000000004,0.5,1.5
145.39835164835165,4.676308378354342e-09,-1.516623033237858e-10,0.5,0.4,0.42000000000000004,0.5,1.5
146.4010989010989,4.353282090171667e-09,-1.516623033237858e-10,0.5,0.4,0.42000000000000004,0.5,1.5
147.40384615384616,4.0438705687410645e-09,-1.516623033237858e-10,0.5,0.4,0.42000000000000004,0.5,1.5
148.4065934065934,3.7480738140625504e-09,-1.516623033237858e-10,0.5,0.4,0.42000000000000004,0.5,1.5
149.40934065934067,3.4658918261361082e-09,-1.516623033237858e-10,0.5,0.4,0.42000000000000004,0.5,1.5
150.4120879120879,3.1973246049617545e-09,-1.516623033237858e-10,0.5,0.4,0.42000000000000004,0.5,1.5
151.41483516483515,2.9423721505394805e-09,-1.516623033237858e-10,0.5,0.4,0.42000000000000004,0.5,1.5
152.41758241758242,2.8027173818955687e-09,-1.516623033237858e-10,0.5,0.4,0.42000000000000004,0.5,1.5
153.42032967032966,2.5007793177745806e-09,-1.516623033237858e-10,0.5,0.4,0.42000000000000004,0.5,1.5
154.42307692307693,2.2068757675895743e-09,-1.516623033237858e-10,0.5,0.4,0.42000000000000004,0.5,1.5
155.42582417582418,1.918033018897436e-09,-1.516623033237858e-10,0.5,0.4,0.42000000000000004,0.5,1.5
156.42857142857142,1.6312773592550263e-09,-1.516623033237858e-10,0.5,0.4,0.42000000000000004,0.5,1.5
157.4313186813187,1.343635076219206e-09,-1.516623033237858e-10,0.5,0.4,0.42000000000000004,0.5,1.5
158.43406593406593,1.0521324573468612e-09,-1.516623033237858e-10,0.5,0.4,0.42000000000000004,0.5,1.5
159.4368131868132,7.827659476589467e-10,-1.516623033237858e-10,0.5,0.4,0.42000000000000004,0.5,1.5
160.43956043956044,5.866643635580341e-10,-1.516623033237858e-10,0.5,0.4,0.42000000000000004,0.5,1.5
161.44230769230768,4.913379888294125e-10,-1.516623033237858e-10,0.5,0.4,0.42000000000000004,0.5,1.5
162.44505494505495,5.189683359103952e-10,-1.516623033237858e-10,0.5,0.4,0.42000000000000004,0.5,1.5
163.4478021978022,6.353580469568949e-10,-1.516623033237858e-10,0.5,0.4,0.42000000000000004,0.5,1.5
164.45054945054946,8.221496679304082e-10,-1.516623033237858e-10,0.5,0.4,0.42000000000000004,0.5,1.5
165.4532967032967,1.0712730044792516e-09,-1.516623033237858e-10,0.5,0.4,0.42000000000000004,0.5,1.5
166.45604395604394,1.3429863454068807e-09,-1.516623033237858e-10,0.5,0.4,0.42000000000000004,0.5,1.5
167.4587912087912,1.5465335755956142e-09,-1.516623033237858e-10,0.5,0.4,0.42000000000000004,0.5,1.5
168.46153846153845,1.628676479380872e-09,-1.516623033237858e-10,0.5,0.4,0.42000000000000004,0.5,1.5
169.46428571428572,1.6634231195717308e-09,-1.516623033237858e-10,0.5,0.4,0.42000000000000004,0.5,1.5
170.46703296703296,1.3912214522622953e-09,-1.516623033237858e-10,0.5,0.4,0.42000000000000004,0.5,1.5
171.4697802197802,1.1101024088835755e-09,-1.516623033237858e-10,0.5,0.4,0.42000000000000004,0.5,1.5
172.47252747252747,8.200659894355631e-10,-1.516623033237858e-10,0.5,0.4,0.42000000000000004,0.5,1.5
173.47527472527472,5.691887276057394e-10,-1.516623033237858e-10,0.5,0.4,0.42000000000000004,0.5,1.5
174.47802197802199,4.869090274157379e-10,-1.516623033237858e-10,0.5,0.4,0.42000000000000004,0.5,1.5
175.48076923076923,4.836983851490288e-10,-1.516623033237858e-10,0.5,0.4,0.42000000000000004,0.5,1.5
176.4835164835165,4.966103840660788e-10,-1.516623033237858e-10,0.5,0.4,0.42000000000000004,0.5,1.5
177.48626373626374,4.907181706994397e-10,-1.516623033237858e-10,0.5,0.4,0.42000000000000004,0.5,1.5
178.48901098901098,4.694010314466228e-10,-1.516623033237858e-10,0.5,0.4,0.42000000000000004,0.5,1.5
179.49175824175825,4.4091776067356533e-10,-1.516623033237858e-10,0.5,0.4,0.42000000000000004,0.5,1.5
180.4945054945055,4.1321879801197306e-10,-1.516623033237858e-10,0.5,0.4,0.42000000000000004,0.5,1.5
181.49725274725276,3.8750975747736115e-10,-1.516623033237858e-10,0.5,0.4,0.42000000000000004,0.5,1.5
182.5,3.6406476284727984e-10,-1.516623033237858e-10,0.5,0.4,0.42000000000000004,0.5,1.5
183.50274725274724,3.4308878976317797e-10,-1.516623033237858e-10,0.5,0.4,0.42000000000000004,0.5,1.5
184.5054945054945,3.2459181166636135e-10,-1.516623033237858e-10,0.5,0.4,0.42000000000000004,0.5,1.5
185.50824175824175,3.0857382855683086e-10,-1.516623033237858e-10,0.5,0.4,0.42000000000000004,0.5,1.5
186.51098901098902,2.9503484043458577e-10,-1.516623033237858e-10,0.5,0.4,0.42000000000000004,0.5,1.5
187.51373626373626,2.8397484729962675e-10,-1.516623033237858e-10,0.5,0.4,0.42000000000000004,0.5,1.5
188.5164835164835,2.753938491519534e-10,-1.516623033237858e-10,0.5,0.4,0.42000000000000004,0.5,1.5
189.51923076923077,2.694998114653855e-10,-1.516623033237858e-10,0.5,0.4,0.42000000000000004,0.5,1.5
190.52197802197801,2.6878840838586153e-10,-1.516623033237858e-10,0.5,0.4,0.42000000000000004,0.5,1.5
191.52472527472528,2.7398923942902145e-10,-1.516623033237858e-10,0.5,0.4,0.42000000000000004,0.5,1.5
192.52747252747253,2.8510230459486504e-10,-1.516623033237858e-10,0.5,0.4,0.42000000000000004,0.5,1.5
193.53021978021977,3.0212760388339236e-10,-1.516623033237858e-10,0.5,0.4,0.42000000000000004,0.5,1.5
194.53296703296704,3.250651372946041e-10,-1.516623033237858e-10,0.5,0.4,0.42000000000000004,0.5,1.5
195.53571428571428,3.53914904828499e-10,-1.516623033237858e-10,0.5,0.4,0.42000000000000004,0.5,1.5
196.53846153846155,3.8867690648507867e-10,-1.516623033237858e-10,0.5,0.4,0.42000000000000004,0.5,1.5
197.5412087912088,4.749640878069504e-10,-1.516623033237858e-10,0.5,0.4,0.42000000000000004,0.5,1.5
198.54395604395603,4.899827353720687e-10,-1.516623033237858e-10,0.5,0.4,0.42000000000000004,0.5,1.5
199.5467032967033,5.087417229642014e-10,-1.516623033237858e-10,0.5,0.4,0.42000000000000004,0.5,1.5
